      t [ms]     p [hPa]      s [cm]
ƒƒƒƒƒƒƒƒƒƒƒƒƒƒƒƒƒƒƒƒƒƒƒƒƒƒƒƒƒƒƒƒƒƒƒƒ
           0         124        9.27
           1         128        9.23
           2         132        9.21
           3         135        9.19
           4         140        9.17
           5         145        9.12
           6         145        9.12
           7         151        9.09
           8         156        9.06
           9         158        9.02
          10         164        8.99
          11         168        8.96
          12         172        8.94
          13         175        8.93
          14         180        8.92
          15         183        8.88
          16         188        8.84
          17         192        8.80
          18         196        8.79
          19         201        8.76
          20         202        8.73
          21         209        8.71
          22         213        8.69
          23         217        8.65
          24         221        8.62
          25         225        8.60
          26         227        8.57
          27         231        8.53
          28         234        8.51
          29         237        8.51
          30         240        8.44
          31         246        8.38
          32         253        8.34
          33         257        8.33
          34         264        8.30
          35         270        8.27
          36         275        8.24
          37         282        8.22
          38         282        8.21
          39         289        8.18
          40         294        8.15
          41         302        8.11
          42         308        8.08
          43         314        8.05
          44         318        8.00
          45         323        7.96
          46         329        7.95
          47         337        7.90
          48         341        7.88
          49         347        7.85
          50         351        7.82
          51         355        7.79
          52         359        7.77
          53         362        7.74
          54         364        7.71
          55         367        7.67
          56         371        7.64
          57         374        7.62
          58         378        7.59
          59         385        7.56
          60         394        7.53
          61         404        7.49
          62         412        7.48
          63         419        7.45
          64         427        7.42
          65         434        7.39
          66         442        7.35
          67         447        7.33
          68         454        7.31
          69         458        7.27
          70         464        7.24
          71         468        7.21
          72         472        7.19
          73         476        7.17
          74         479        7.15
          75         483        7.12
          76         487        7.09
          77         491        7.06
          78         495        7.02
          79         501        7.01
          80         505        6.96
          81         511        6.94
          82         516        6.89
          83         519        6.88
          84         522        6.87
          85         526        6.85
          86         531        6.82
          87         537        6.79
          88         543        6.76
          89         549        6.73
          90         556        6.69
          91         563        6.68
          92         569        6.67
          93         576        6.64
          94         582        6.61
          95         586        6.58
          96         592        6.55
          97         596        6.54
          98         601        6.53
          99         605        6.50
         100         608        6.49
         101         612        6.44
         102         615        6.43
         103         617        6.40
         104         621        6.39
         105         624        6.37
         106         629        6.35
         107         632        6.32
         108         637        6.31
         109         640        6.28
         110         644        6.24
         111         650        6.21
         112         654        6.22
         113         659        6.19
         114         663        6.17
         115         670        6.14
         116         671        6.13
         117         675        6.13
         118         678        6.10
         119         680        6.08
         120         685        6.07
         121         685        6.05
         122         687        6.05
         123         692        6.01
         124         692        6.02
         125         694        5.99
         126         697        5.95
         127         698        5.95
         128         702        5.92
         129         705        5.92
         130         710        5.88
         131         714        5.86
         132         718        5.85
         133         723        5.84
         134         727        5.83
         135         731        5.80
         136         735        5.80
         137         738        5.77
         138         744        5.76
         139         745        5.76
         140         748        5.74
         141         749        5.72
         142         751        5.72
         143         753        5.69
         144         755        5.67
         145         756        5.66
         146         757        5.66
         147         758        5.65
         148         760        5.62
         149         762        5.63
         150         764        5.60
         151         765        5.59
         152         767        5.58
         153         770        5.57
         154         771        5.56
         155         773        5.57
         156         776        5.54
         157         778        5.54
         158         780        5.51
         159         781        5.51
         160         781        5.50
         161         781        5.48
         162         782        5.47
         163         783        5.46
         164         781        5.47
         165         783        5.44
         166         784        5.44
         167         785        5.44
         168         787        5.44
         169         788        5.41
         170         789        5.41
         171         793        5.41
         172         793        5.41
         173         794        5.38
         174         794        5.39
         175         794        5.38
         176         794        5.37
         177         793        5.36
         178         795        5.36
         179         794        5.35
         180         794        5.36
         181         793        5.36
         182         793        5.35
         183         792        5.33
         184         793        5.33
         185         793        5.33
         186         793        5.32
         187         792        5.33
         188         791        5.33
         189         791        5.33
         190         791        5.31
         191         791        5.30
         192         790        5.29
         193         789        5.29
         194         789        5.29
         195         788        5.29
         196         787        5.29
         197         787        5.29
         198         784        5.29
         199         784        5.30
         200         783        5.30
         201         781        5.29
         202         780        5.29
         203         778        5.30
         204         778        5.29
         205         774        5.30
         206         773        5.29
         207         772        5.30
         208         769        5.33
         209         767        5.33
         210         765        5.33
         211         761        5.33
         212         760        5.36
         213         756        5.35
         214         753        5.35
         215         750        5.36
         216         745        5.37
         217         741        5.37
         218         735        5.39
         219         733        5.38
         220         728        5.41
         221         724        5.40
         222         719        5.42
         223         715        5.45
         224         711        5.45
         225         706        5.45
         226         701        5.48
         227         698        5.47
         228         692        5.51
         229         687        5.51
         230         682        5.53
         231         675        5.54
         232         670        5.57
         233         664        5.57
         234         659        5.59
         235         653        5.62
         236         647        5.62
         237         643        5.66
         238         638        5.66
         239         635        5.69
         240         626        5.72
         241         621        5.74
         242         615        5.75
         243         609        5.77
         244         601        5.80
         245         593        5.84
         246         586        5.83
         247         579        5.87
         248         572        5.88
         249         566        5.92
         250         559        5.95
         251         553        5.95
         252         550        5.99
         253         544        6.02
         254         540        6.04
         255         534        6.07
         256         529        6.10
         257         523        6.13
         258         514        6.16
         259         505        6.18
         260         497        6.23
         261         487        6.24
         262         479        6.28
         263         471        6.31
         264         462        6.34
         265         456        6.37
         266         450        6.40
         267         444        6.43
         268         437        6.46
         269         431        6.51
         270         426        6.54
         271         419        6.57
         272         415        6.61
         273         408        6.65
         274         402        6.68
         275         396        6.69
         276         390        6.73
         277         384        6.76
         278         378        6.79
         279         371        6.84
         280         365        6.88
         281         358        6.91
         282         350        6.91
         283         345        6.98
         284         336        7.03
         285         329        7.05
         286         324        7.09
         287         318        7.11
         288         311        7.16
         289         305        7.22
         290         299        7.27
         291         293        7.33
         292         291        7.38
         293         287        7.42
         294         282        7.43
         295         276        7.45
         296         269        7.49
         297         265        7.49
         298         259        7.50
         299         255        7.55
         300         245        7.58
         301         238        7.62
         302         231        7.67
         303         227        7.71
         304         223        7.73
         305         218        7.77
         306         210        7.79
         307         202        7.82
         308         198        7.89
         309         193        7.90
         310         187        7.94
         311         184        7.98
         312         178        8.04
         313         172        8.06
         314         168        8.10
         315         164        8.15
         316         161        8.18
         317         156        8.20
         318         155        8.22
         319         148        8.27
         320         143        8.29
         321         139        8.37
         322         135        8.41
         323         131        8.45
         324         127        8.49
         325         123        8.51
         326         119        8.55
         327         114        8.59
         328         111        8.63
         329         107        8.69
         330         104        8.71
         331         103        8.73
         332          99        8.79
         333          95        8.81
         334          92        8.83
         335          87        8.87
         336          85        8.89
         337          83        8.92
         338          78        8.99
         339          75        9.04
         340          71        9.27
         341          67        9.08
         342          64        9.18
         343          61        9.18
         344          58        9.16
         345          55        9.15
         346          52        9.17
         347          52        9.19
         348          48        9.27
         349          46        9.24
         350          44        9.25
         351          41        9.29
         352          39        9.36
         353          37        9.36
         354          33        9.45
         355          32        9.48
         356          28        9.52
         357          26        9.50
         358          22        9.53
         359          20        9.56
         360          18        9.57
         361          14        9.58
         362          13        9.61
         363          11        9.69
         364           9        9.69
         365           7        9.69
         366           5        9.71
         367           3        9.74
         368           1        9.77
         369          -1        9.79
         370          -1        9.78
         371          -2        9.84
         372          -3        9.84
         373          -3        9.83
         374          -8        9.88
         375          -7        9.87
         376          -9        9.91
         377          -9        9.95
         378          -9        9.97
         379         -11        9.98
         380         -11       10.01
         381         -10       10.02
         382         -11       10.03
         383         -12       10.03
         384         -11       10.06
         385         -14       10.07
         386         -15       10.09
         387         -15       10.10
         388         -17       10.12
         389         -17       10.13
         390         -18       10.15
         391         -18       10.15
         392         -19       10.16
         393         -18       10.18
         394         -18       10.20
         395         -20       10.20
         396         -20       10.19
         397         -20       10.23
         398         -20       10.23
         399         -20       10.23
         400         -20       10.25
         401         -19       10.24
         402         -20       10.26
         403         -20       10.28
         404         -21       10.28
         405         -19       10.29
         406         -21       10.29
         407         -20       10.29
         408         -19       10.31
         409         -20       10.31
         410         -20       10.31
         411         -20       10.31
         412         -19       10.30
         413         -20       10.31
         414         -19       10.32
         415         -17       10.31
         416         -19       10.35
         417         -20       10.34
         418         -19       10.34
         419         -20       10.34
         420         -19       10.35
         421         -21       10.35
         422         -20       10.33
         423         -19       10.34
         424         -17       10.32
         425         -19       10.34
         426         -17       10.35
         427         -18       10.34
         428         -17       10.32
         429         -16       10.27
         430         -18       10.26
         431         -15       10.25
         432         -17       10.26
         433         -15       10.27
         434         -15       10.23
         435         -13       10.24
         436         -14       10.23
         437         -14       10.22
         438         -11       10.20
         439         -10       10.20
         440          -9       10.20
         441          -8       10.20
         442          -8       10.17
         443          -7       10.17
         444          -6       10.16
         445          -5       10.15
         446          -4       10.13
         447          -3       10.13
         448          -2       10.12
         449          -1       10.11
         450           1       10.11
         451           2       10.08
         452           5       10.08
         453           7       10.05
         454           8       10.05
         455           9       10.02
         456          12       10.02
         457          12        9.99
         458          16        9.99
         459          17        9.98
         460          20        9.96
         461          23        9.94
         462          25        9.94
         463          29        9.91
         464          33        9.91
         465          38        9.87
         466          40        9.84
         467          44        9.83
         468          47        9.81
         469          49        9.81
         470          54        9.79
         471          58        9.78
         472          61        9.76
         473          64        9.72
         474          67        9.69
         475          70        9.69
         476          73        9.66
         477          75        9.64
         478          78        9.64
         479          82        9.61
         480          84        9.58
         481          86        9.55
         482          90        9.54
         483          91        9.53
         484          93        9.48
         485          96        9.47
         486          97        9.43
         487          99        9.43
         488         102        9.41
         489         105        9.37
         490         109        9.34
         491         113        9.32
         492         116        9.29
         493         119        9.28
         494         123        9.25
         495         128        9.23
         496         133        9.20
         497         138        9.17
         498         142        9.14
         499         146        9.10
         500         152        9.09
